time,energy,mass,size
1,2116,16.8464,0
2,4232,16.6992,0
3,6348,16.552,0
4,8464,16.4048,0
5,10576,16.2608,0
6,12692,16.1136,0
7,14804,15.9696,0
8,16904,15.8304,0
9,19004,15.6912,0
10,21104,15.552,0
11,23196,15.416,0
12,25272,15.288,0
13,27340,15.1632,0
14,29392,15.0464,0
15,31436,14.9312,0
16,33480,14.816,0
17,35524,14.7024,0
18,37556,14.592,0
19,39540,14.5024,0
20,41540,14.4064,0
21,43516,14.3216,0
22,45476,14.2416,0
23,47404,14.1728,0
24,49352,14.096,0
25,51268,14.0336,0
26,53220,13.9584,0
27,55120,13.8992,0
28,57072,13.8192,0
29,58964,13.7664,0
30,60908,13.6896,0
31,62820,13.6272,0
32,64776,13.5472,0
33,66676,13.4896,0
34,68604,13.4176,0
35,70500,13.3616,0
36,72432,13.2816,0
37,74320,13.2208,0
38,76244,13.1504,0
39,78112,13.0976,0
40,80032,13.032,0
41,81916,12.9712,0
42,83808,12.9008,0
43,85696,12.8368,0
44,87580,12.776,0
45,89424,12.72,0
46,91284,12.6592,0
47,93148,12.6032,0
48,95016,12.5424,0
49,96840,12.4896,0
50,98696,12.4304,0
51,100552,12.3712,0
52,102364,12.3264,0
53,104188,12.2688,0
54,106016,12.2128,0
55,107832,12.1632,0
56,109656,12.1024,0
57,111440,12.0592,0
58,113224,12.0128,0
59,115024,11.9616,0
60,116836,11.9072,0
61,118584,11.8656,0
62,120352,11.8176,0
63,122128,11.7696,0
64,123888,11.7312,0
65,125644,11.6816,0
66,127396,11.6384,0
67,129136,11.5952,0
68,130880,11.552,0
69,132632,11.5088,0
70,134364,11.4672,0
71,136092,11.4288,0
72,137836,11.3872,0
73,139568,11.3376,0
74,141292,11.3024,0
75,143036,11.264,0
76,144744,11.2224,0
77,146476,11.1824,0
78,148196,11.1408,0
79,149924,11.0944,0
80,151640,11.0544,0
81,153360,11.0224,0
82,155068,10.9824,0
83,156780,10.9408,0
84,158488,10.9072,0
85,160184,10.8672,0
86,161884,10.8288,0
87,163588,10.7856,0
88,165288,10.7472,0
89,166972,10.7168,0
90,168644,10.6832,0
91,170336,10.6384,0
92,172028,10.5952,0
93,173692,10.5648,0
94,175344,10.5312,0
95,177032,10.4832,0
96,178692,10.4528,0
97,180344,10.4208,0
98,182016,10.3824,0
99,183624,10.3488,0
100,185260,10.3216,0
101,186912,10.2864,0
102,188540,10.2464,0
103,190152,10.2144,0
104,191756,10.1792,0
105,193380,10.144,0
106,194964,10.1136,0
107,196552,10.0864,0
108,198144,10.0576,0
109,199760,10.0144,0
110,201344,9.9824,0
111,202920,9.96,0
112,204504,9.9296,0
113,206092,9.8912,0
114,207652,9.8656,0
115,209228,9.84,0
116,210808,9.8128,0
117,212408,9.7696,0
118,213956,9.7424,0
119,215504,9.72,0
120,217076,9.696,0
121,218648,9.6592,0
122,220192,9.6304,0
123,221760,9.608,0
124,223332,9.5776,0
125,224912,9.5392,0
126,226444,9.512,0
127,227964,9.4912,0
128,229508,9.464,0
129,231096,9.4224,0
130,232660,9.3936,0
131,234200,9.3728,0
132,235772,9.3456,0
133,237368,9.3024,0
134,238900,9.2768,0
135,240408,9.256,0
136,241940,9.2272,0
137,243488,9.192,0
138,245024,9.168,0
139,246556,9.144,0
140,248116,9.1136,0
141,249652,9.0832,0
142,251160,9.0624,0
143,252676,9.0416,0
144,254196,9.008,0
145,255704,8.9744,0
146,257188,8.952,0
147,258704,8.9296,0
148,260236,8.9024,0
149,261768,8.8672,0
150,263272,8.84,0
151,264748,8.8176,0
152,266244,8.784,0
153,267752,8.7536,0
154,269256,8.7232,0
155,270728,8.7072,0
156,272220,8.6864,0
157,273708,8.656,0
158,275196,8.624,0
159,276700,8.6,0
160,278168,8.5808,0
161,279624,8.5568,0
162,281068,8.5296,0
163,282540,8.5088,0
164,284020,8.4832,0
165,285496,8.4528,0
166,286948,8.4336,0
167,288424,8.408,0
168,289884,8.3824,0
169,291308,8.3584,0
170,292728,8.3376,0
171,294168,8.3216,0
172,295636,8.2944,0
173,297072,8.2624,0
174,298512,8.2368,0
175,299956,8.2128,0
176,301380,8.1872,0
177,302812,8.1632,0
178,304232,8.1424,0
179,305676,8.12,0
180,307112,8.0864,0
181,308520,8.0608,0
182,309896,8.0448,0
183,311268,8.0256,0
184,312688,8.0064,0
185,314112,7.9776,0
186,315532,7.9536,0
187,316888,7.936,0
188,318272,7.9168,0
189,319664,7.8976,0
190,321064,7.8688,0
191,322436,7.8544,0
192,323768,7.8352,0
193,325128,7.8192,0
194,326516,7.8016,0
195,327932,7.776,0
196,329308,7.7488,0
197,330648,7.736,0
198,332024,7.7184,0
199,333404,7.6912,0
200,334796,7.6672,0
201,336184,7.64,0
202,337500,7.6272,0
203,338824,7.6224,0
204,340160,7.5984,0
205,341544,7.5664,0
206,342940,7.536,0
207,344272,7.5168,0
208,345620,7.5008,0
209,346968,7.4848,0
210,348336,7.4592,0
211,349680,7.4304,0
212,351028,7.408,0
213,352380,7.3984,0
214,353688,7.3824,0
215,355020,7.3584,0
216,356364,7.3344,0
217,357700,7.3152,0
218,359032,7.2976,0
219,360340,7.2736,0
220,361664,7.2608,0
221,362976,7.2464,0
222,364268,7.2256,0
223,365560,7.208,0
224,366896,7.1904,0
225,368232,7.168,0
226,369564,7.152,0
227,370892,7.1328,0
228,372192,7.1088,0
229,373496,7.096,0
230,374800,7.08,0
231,376108,7.0608,0
232,377400,7.0496,0
233,378692,7.032,0
234,379988,7.0112,0
235,381292,6.9904,0
236,382524,6.9744,0
237,383764,6.96,0
238,385048,6.9472,0
239,386348,6.9296,0
240,387620,6.9056,0
241,388900,6.8864,0
242,390160,6.872,0
243,391428,6.856,0
244,392720,6.8384,0
245,393992,6.8208,0
246,395232,6.8048,0
247,396508,6.7792,0
248,397752,6.7568,0
249,398996,6.7424,0
250,400228,6.728,0
251,401492,6.7104,0
252,402744,6.6944,0
253,404036,6.6736,0
254,405272,6.6496,0
255,406508,6.6336,0
256,407764,6.6192,0
257,409008,6.6064,0
258,410264,6.5888,0
259,411536,6.5632,0
260,412796,6.5408,0
261,414064,6.5232,0
262,415312,6.504,0
263,416524,6.4896,0
264,417728,6.48,0
265,418932,6.472,0
266,420192,6.4528,0
267,421452,6.4304,0
268,422664,6.4096,0
269,423884,6.3936,0
270,425120,6.3776,0
271,426340,6.3648,0
272,427572,6.3536,0
273,428824,6.336,0
274,430024,6.312,0
275,431204,6.2944,0
276,432416,6.2848,0
277,433628,6.272,0
278,434836,6.2592,0
279,436056,6.2464,0
280,437260,6.2272,0
281,438404,6.2096,0
282,439588,6.2048,0
283,440808,6.1872,0
284,442008,6.1664,0
285,443236,6.1488,0
286,444476,6.1296,0
287,445668,6.104,0
288,446832,6.0896,0
289,448004,6.0816,0
290,449164,6.0688,0
291,450352,6.0544,0
292,451584,6.0336,0
293,452832,6.0144,0
294,454052,5.9952,0
295,455248,5.9792,0
296,456408,5.9568,0
297,457572,5.9408,0
298,458760,5.9312,0
299,459944,5.9152,0
300,461112,5.896,0
301,462256,5.8848,0
302,463432,5.8704,0
303,464588,5.8528,0
304,465736,5.8384,0
305,466896,5.8208,0
306,468076,5.8016,0
307,469224,5.7904,0
308,470348,5.7776,0
309,471464,5.7632,0
310,472640,5.744,0
311,473816,5.7248,0
312,474988,5.7072,0
313,476140,5.696,0
314,477252,5.6816,0
315,478356,5.6704,0
316,479484,5.6608,0
317,480596,5.6432,0
318,481732,5.6272,0
319,482880,5.6112,0
320,484012,5.5936,0
321,485144,5.5792,0
322,486276,5.568,0
323,487396,5.5568,0
324,488496,5.5424,0
325,489592,5.5296,0
326,490704,5.5216,0
327,491828,5.504,0
328,492956,5.488,0
329,494088,5.4704,0
330,495168,5.456,0
331,496280,5.4464,0
332,497368,5.432,0
333,498480,5.4256,0
334,499556,5.416,0
335,500600,5.4032,0
336,501664,5.3904,0
337,502724,5.3776,0
338,503800,5.3648,0
339,504892,5.3456,0
340,505964,5.3312,0
341,507000,5.3168,0
342,508064,5.3056,0
343,509136,5.2976,0
344,510200,5.2928,0
345,511280,5.2816,0
346,512376,5.2672,0
347,513480,5.2448,0
348,514556,5.224,0
349,515596,5.2112,0
350,516672,5.1968,0
351,517692,5.1904,0
352,518744,5.184,0
353,519812,5.1712,0
354,520900,5.152,0
355,522028,5.1328,0
356,523112,5.1152,0
357,524144,5.0992,0
358,525156,5.0864,0
359,526152,5.0768,0
360,527188,5.0688,0
361,528232,5.0592,0
362,529268,5.048,0
363,530348,5.0288,0
364,531416,5.0064,0
365,532472,4.9872,0
366,533492,4.9776,0
367,534492,4.9744,0
368,535504,4.968,0
369,536536,4.9552,0
370,537528,4.9456,0
371,538548,4.9344,0
372,539588,4.9184,0
373,540652,4.8976,0
374,541680,4.8848,0
375,542732,4.8784,0
376,543772,4.8624,0
377,544756,4.8496,0
378,545712,4.8432,0
379,546748,4.8288,0
380,547768,4.8176,0
381,548824,4.8064,0
382,549872,4.7936,0
383,550888,4.7808,0
384,551896,4.768,0
385,552860,4.7568,0
386,553860,4.7472,0
387,554840,4.736,0
388,555816,4.72,0
389,556804,4.7088,0
390,557796,4.7008,0
391,558760,4.6912,0
392,559756,4.68,0
393,560744,4.6672,0
394,561756,4.6544,0
395,562736,4.6464,0
396,563712,4.6384,0
397,564700,4.6304,0
398,565672,4.6224,0
399,566644,4.608,0
400,567620,4.5936,0
401,568576,4.5776,0
402,569560,4.5648,0
403,570512,4.5552,0
404,571472,4.5456,0
405,572440,4.5408,0
406,573440,4.5312,0
407,574408,4.52,0
408,575364,4.5024,0
409,576296,4.4912,0
410,577244,4.4832,0
411,578196,4.472,0
412,579168,4.4576,0
413,580092,4.4528,0
414,581024,4.4448,0
415,581972,4.432,0
416,582904,4.4144,0
417,583824,4.4016,0
418,584756,4.3904,0
419,585736,4.3712,0
420,586696,4.3568,0
421,587652,4.3472,0
422,588608,4.3408,0
423,589524,4.3328,0
424,590436,4.3232,0
425,591344,4.3136,0
426,592296,4.304,0
427,593256,4.296,0
428,594188,4.28,0
429,595076,4.2656,0
430,596000,4.256,0
431,596920,4.248,0
432,597848,4.2368,0
433,598800,4.2224,0
434,599732,4.2144,0
435,600644,4.2016,0
436,601588,4.184,0
437,602500,4.1728,0
438,603416,4.1616,0
439,604356,4.1504,0
440,605268,4.1424,0
441,606180,4.1344,0
442,607100,4.1232,0
443,607992,4.1136,0
444,608896,4.1008,0
445,609800,4.0928,0
446,610712,4.0864,0
447,611608,4.0752,0
448,612484,4.0656,0
449,613404,4.0544,0
450,614320,4.0432,0
451,615192,4.0304,0
452,616056,4.0224,0
453,616952,4.016,0
454,617848,4.008,0
455,618712,4.0,0
456,619552,3.9936,0
457,620416,3.9824,0
458,621312,3.9744,0
459,622232,3.9616,0
460,623136,3.9472,0
461,624016,3.9296,0
462,624912,3.92,0
463,625788,3.9152,0
464,626672,3.9056,0
465,627528,3.9008,0
466,628404,3.8944,0
467,629288,3.888,0
468,630132,3.88,0
469,630984,3.872,0
470,631852,3.8672,0
471,632708,3.8576,0
472,633592,3.8448,0
473,634508,3.8288,0
474,635388,3.816,0
475,636248,3.8032,0
476,637104,3.7888,0
477,637944,3.784,0
478,638748,3.784,0
479,639548,3.7824,0
480,640360,3.7744,0
481,641180,3.7648,0
482,642012,3.752,0
483,642872,3.7424,0
484,643736,3.728,0
485,644548,3.72,0
486,645388,3.7152,0
487,646260,3.7104,0
488,647116,3.7024,0
489,647960,3.6928,0
490,648800,3.6848,0
491,649592,3.6752,0
492,650404,3.664,0
493,651204,3.6512,0
494,652000,3.64,0
495,652852,3.6304,0
496,653672,3.624,0
497,654476,3.6176,0
498,655288,3.6128,0
499,656096,3.608,0
500,656916,3.6032,0
501,657732,3.5936,0
502,658576,3.5744,0
503,659420,3.5552,0
504,660264,3.5424,0
505,661092,3.5296,0
506,661876,3.5216,0
507,662684,3.5104,0
508,663512,3.5072,0
509,664360,3.4992,0
510,665192,3.4912,0
511,666008,3.4864,0
512,666780,3.4784,0
513,667572,3.4688,0
514,668352,3.4592,0
515,669152,3.448,0
516,669940,3.4336,0
517,670728,3.424,0
518,671508,3.4208,0
519,672304,3.416,0
520,673092,3.408,0
521,673888,3.4,0
522,674732,3.392,0
523,675504,3.3856,0
524,676292,3.3776,0
525,677040,3.368,0
526,677808,3.3504,0
527,678588,3.3376,0
528,679356,3.3296,0
529,680132,3.3232,0
530,680932,3.3152,0
531,681684,3.3088,0
532,682444,3.3024,0
533,683208,3.3008,0
534,683964,3.2976,0
535,684704,3.288,0
536,685464,3.272,0
537,686236,3.2544,0
538,687004,3.2464,0
539,687796,3.2384,0
540,688588,3.2288,0
541,689376,3.2224,0
542,690148,3.2144,0
543,690904,3.2112,0
544,691652,3.2064,0
545,692432,3.2016,0
546,693188,3.1984,0
547,693952,3.1872,0
548,694688,3.1776,0
549,695432,3.1632,0
550,696188,3.1552,0
551,696912,3.1456,0
552,697684,3.136,0
553,698428,3.1296,0
554,699196,3.1264,0
555,699936,3.12,0
556,700636,3.112,0
557,701340,3.1072,0
558,702072,3.0992,0
559,702788,3.0848,0
560,703528,3.0736,0
561,704316,3.0608,0
562,705032,3.0576,0
563,705752,3.0512,0
564,706472,3.0432,0
565,707156,3.0368,0
566,707844,3.032,0
567,708552,3.0272,0
568,709276,3.0176,0
569,710028,3.0048,0
570,710764,2.9968,0
571,711428,2.992,0
572,712092,2.9824,0
573,712764,2.9728,0
574,713436,2.9664,0
575,714108,2.9584,0
576,714796,2.9568,0
577,715508,2.9536,0
578,716180,2.9504,0
579,716840,2.9472,0
580,717544,2.9424,0
581,718228,2.936,0
582,718916,2.9248,0
583,719632,2.912,0
584,720348,2.9008,0
585,721028,2.8928,0
586,721716,2.8832,0
587,722400,2.8784,0
588,723076,2.8736,0
589,723784,2.8576,0
590,724476,2.8496,0
591,725132,2.8464,0
592,725780,2.8416,0
593,726436,2.8416,0
594,727124,2.8384,0
595,727768,2.8336,0
596,728464,2.8208,0
597,729144,2.8096,0
598,729812,2.8016,0
599,730456,2.7968,0
600,731128,2.7936,0
601,731780,2.7872,0
602,732400,2.7792,0
603,732996,2.7728,0
604,733632,2.7712,0
605,734316,2.7664,0
606,735004,2.7584,0
607,735652,2.7504,0
608,736276,2.7392,0
609,736956,2.728,0
610,737596,2.7216,0
611,738252,2.7152,0
612,738936,2.7056,0
613,739592,2.7008,0
614,740220,2.696,0
615,740856,2.6864,0
616,741488,2.6704,0
617,742088,2.6688,0
618,742720,2.664,0
619,743360,2.656,0
620,744012,2.648,0
621,744640,2.6416,0
622,745284,2.632,0
623,745920,2.624,0
624,746488,2.6176,0
625,747112,2.6096,0
626,747684,2.6064,0
627,748268,2.6016,0
628,748872,2.6,0
629,749452,2.5968,0
630,750056,2.5888,0
631,750704,2.5776,0
632,751348,2.5648,0
633,751928,2.5552,0
634,752508,2.5472,0
635,753068,2.5376,0
636,753640,2.536,0
637,754220,2.5344,0
638,754824,2.5296,0
639,755440,2.5248,0
640,756024,2.5168,0
641,756580,2.5104,0
642,757088,2.5088,0
643,757632,2.5088,0
644,758196,2.5056,0
645,758804,2.4992,0
646,759360,2.4912,0
647,759944,2.4848,0
648,760512,2.4752,0
649,761100,2.4656,0
650,761664,2.4608,0
651,762236,2.4544,0
652,762816,2.4512,0
653,763396,2.4416,0
654,763992,2.4384,0
655,764568,2.4288,0
656,765104,2.4224,0
657,765664,2.416,0
658,766220,2.4144,0
659,766796,2.4128,0
660,767348,2.4064,0
661,767928,2.4016,0
662,768480,2.3904,0
663,769052,2.3872,0
664,769616,2.3824,0
665,770200,2.3728,0
666,770740,2.3712,0
667,771292,2.3664,0
668,771852,2.36,0
669,772400,2.3552,0
670,772980,2.3488,0
671,773444,2.344,0
672,773936,2.3376,0
673,774460,2.336,0
674,774992,2.3312,0
675,775528,2.3264,0
676,776012,2.3232,0
677,776504,2.3216,0
678,777004,2.3184,0
679,777532,2.3152,0
680,778064,2.3072,0
681,778616,2.2928,0
682,779140,2.2816,0
683,779692,2.2752,0
684,780204,2.2672,0
685,780748,2.2608,0
686,781288,2.2544,0
687,781828,2.2464,0
688,782328,2.2416,0
689,782852,2.2384,0
690,783352,2.2368,0
691,783800,2.2304,0
692,784260,2.2272,0
693,784764,2.2224,0
694,785240,2.2208,0
695,785688,2.2192,0
696,786132,2.2128,0
697,786576,2.2064,0
698,787036,2.2,0
699,787512,2.1952,0
700,787952,2.1936,0
701,788448,2.1888,0
702,788908,2.1856,0
703,789372,2.1808,0
704,789844,2.176,0
705,790352,2.1728,0
706,790820,2.1696,0
707,791308,2.16,0
708,791812,2.1472,0
709,792320,2.1392,0
710,792812,2.1328,0
711,793280,2.128,0
712,793764,2.1248,0
713,794220,2.1216,0
714,794624,2.1184,0
715,795064,2.1088,0
716,795524,2.1024,0
717,795988,2.096,0
718,796448,2.0928,0
719,796932,2.088,0
720,797420,2.0816,0
721,797900,2.0784,0
722,798360,2.0752,0
723,798772,2.0752,0
724,799196,2.072,0
725,799632,2.072,0
726,800076,2.0672,0
727,800480,2.056,0
728,800928,2.048,0
729,801332,2.0416,0
730,801696,2.0416,0
731,802084,2.04,0
732,802472,2.0384,0
733,802856,2.0336,0
734,803264,2.0208,0
735,803684,2.0112,0
736,804068,2.008,0
737,804456,2.0064,0
738,804840,2.0032,0
739,805200,2.0,0
740,805604,1.9952,0
741,805960,1.992,0
742,806284,1.9872,0
743,806628,1.984,0
744,806984,1.984,0
745,807336,1.9808,0
746,807704,1.9792,0
747,808084,1.9744,0
748,808468,1.9664,0
749,808812,1.9632,0
750,809140,1.9616,0
751,809452,1.96,0
752,809768,1.9584,0
753,810096,1.9552,0
754,810400,1.9536,0
755,810680,1.9504,0
756,810952,1.9456,0
757,811212,1.9456,0
758,811492,1.944,0
759,811768,1.9376,0
760,812064,1.9312,0
761,812308,1.9296,0
762,812536,1.928,0
763,812756,1.928,0
764,813008,1.928,0
765,813296,1.928,0
766,813572,1.9264,0
767,813840,1.9248,0
768,814112,1.9216,0
769,814380,1.9168,0
770,814668,1.9136,0
771,814988,1.9088,0
772,815280,1.9056,0
773,815604,1.896,0
774,815928,1.8896,0
775,816232,1.8864,0
776,816528,1.8784,0
777,816800,1.8736,0
778,817072,1.8688,0
779,817352,1.8608,0
780,817600,1.856,0
781,817848,1.8544,0
782,818128,1.8544,0
783,818372,1.8544,0
784,818588,1.8528,0
785,818772,1.8512,0
786,818956,1.848,0
787,819140,1.848,0
788,819324,1.848,0
789,819556,1.8464,0
790,819768,1.8448,0
791,819940,1.8416,0
792,820104,1.8352,0
793,820272,1.8288,0
794,820424,1.8288,0
795,820552,1.8256,0
796,820704,1.8256,0
797,820836,1.824,0
798,820988,1.8208,0
799,821164,1.8208,0
800,821340,1.8208,0
801,821504,1.8192,0
802,821644,1.816,0
803,821812,1.8112,0
804,821980,1.8064,0
805,822124,1.7984,0
806,822236,1.7936,0
807,822360,1.7936,0
808,822472,1.792,0
809,822576,1.7904,0
810,822676,1.7904,0
811,822780,1.7904,0
812,822880,1.7872,0
813,822988,1.7872,0
814,823072,1.7856,0
815,823160,1.7824,0
816,823252,1.7808,0
817,823356,1.7792,0
818,823432,1.7792,0
819,823508,1.7776,0
820,823592,1.776,0
821,823668,1.776,0
822,823740,1.776,0
823,823832,1.7744,0
824,823920,1.7744,0
825,823980,1.7744,0
826,824036,1.7744,0
827,824096,1.7744,0
828,824168,1.7744,0
829,824244,1.7744,0
830,824312,1.7744,0
831,824376,1.7712,0
832,824460,1.7664,0
833,824524,1.7632,0
834,824580,1.7616,0
835,824648,1.76,0
836,824716,1.7584,0
837,824780,1.7584,0
838,824828,1.7584,0
839,824872,1.7584,0
840,824916,1.7584,0
841,824956,1.7584,0
842,824996,1.7584,0
843,825032,1.7584,0
844,825072,1.7584,0
845,825104,1.7584,0
846,825128,1.7584,0
847,825152,1.7584,0
848,825180,1.7568,0
849,825204,1.7552,0
850,825224,1.7552,0
851,825244,1.7552,0
852,825264,1.7552,0
853,825296,1.7552,0
854,825332,1.7552,0
855,825360,1.7552,0
856,825388,1.7552,0
857,825408,1.7552,0
858,825432,1.7552,0
859,825472,1.7552,0
860,825532,1.7536,0
861,825604,1.752,0
862,825672,1.7488,0
863,825724,1.7488,0
864,825776,1.7488,0
865,825836,1.7472,0
866,825876,1.7456,0
867,825908,1.7456,0
868,825932,1.7456,0
869,825952,1.7456,0
870,825972,1.7456,0
871,825996,1.7456,0
872,826024,1.7456,0
873,826060,1.7456,0
874,826096,1.7456,0
875,826124,1.7456,0
876,826152,1.7456,0
877,826180,1.7456,0
878,826216,1.744,0
879,826252,1.744,0
880,826296,1.744,0
881,826344,1.744,0
882,826384,1.744,0
883,826416,1.744,0
884,826436,1.744,0
885,826452,1.744,0
886,826468,1.744,0
887,826488,1.744,0
888,826496,1.744,0
889,826512,1.744,0
890,826528,1.744,0
891,826536,1.744,0
892,826540,1.744,0
893,826548,1.744,0
894,826560,1.744,0
895,826576,1.744,0
896,826592,1.744,0
897,826612,1.744,0
898,826640,1.744,0
899,826656,1.744,0
900,826676,1.7408,0
901,826700,1.7376,0
902,826716,1.736,0
903,826732,1.7344,0
904,826740,1.7344,0
905,826744,1.7344,0
906,826748,1.7344,0
907,826752,1.7344,0
908,826756,1.7344,0
909,826760,1.7344,0
910,826772,1.7344,0
911,826772,1.7344,0
