time,energy,mass,size
1,2116,16.4624,0
2,4232,16.3152,0
3,6348,16.168,0
4,8464,16.0208,0
5,10580,15.8736,0
6,12692,15.7296,0
7,14804,15.5856,0
8,16876,15.4576,0
9,18964,15.3248,0
10,21036,15.2,0
11,23112,15.072,0
12,25172,14.952,0
13,27232,14.8288,0
14,29288,14.712,0
15,31324,14.6016,0
16,33328,14.5008,0
17,35356,14.3952,0
18,37352,14.3008,0
19,39312,14.2208,0
20,41292,14.1312,0
21,43240,14.056,0
22,45168,13.9872,0
23,47096,13.92,0
24,49024,13.8496,0
25,50952,13.7792,0
26,52876,13.7136,0
27,54804,13.6464,0
28,56712,13.584,0
29,58644,13.5152,0
30,60560,13.4448,0
31,62476,13.3744,0
32,64380,13.3136,0
33,66304,13.2464,0
34,68200,13.1856,0
35,70116,13.1184,0
36,72016,13.056,0
37,73912,12.9856,0
38,75792,12.9264,0
39,77688,12.8672,0
40,79596,12.8016,0
41,81468,12.7408,0
42,83328,12.6752,0
43,85180,12.6176,0
44,87052,12.5568,0
45,88900,12.4976,0
46,90716,12.4448,0
47,92544,12.3952,0
48,94392,12.3392,0
49,96192,12.2928,0
50,98032,12.2256,0
51,99824,12.1808,0
52,101636,12.128,0
53,103404,12.0768,0
54,105176,12.0352,0
55,106968,11.9872,0
56,108736,11.9456,0
57,110496,11.8976,0
58,112276,11.8432,0
59,114032,11.8064,0
60,115784,11.7632,0
61,117528,11.7184,0
62,119276,11.68,0
63,120992,11.6384,0
64,122744,11.592,0
65,124500,11.552,0
66,126228,11.5088,0
67,127956,11.4688,0
68,129700,11.4336,0
69,131392,11.3888,0
70,133124,11.3456,0
71,134868,11.3088,0
72,136560,11.2688,0
73,138276,11.2288,0
74,140024,11.1872,0
75,141724,11.1472,0
76,143436,11.1136,0
77,145172,11.064,0
78,146868,11.024,0
79,148556,10.9904,0
80,150264,10.9504,0
81,151956,10.9136,0
82,153668,10.8736,0
83,155364,10.8336,0
84,157036,10.7968,0
85,158744,10.7504,0
86,160436,10.7152,0
87,162108,10.6832,0
88,163792,10.64,0
89,165468,10.6064,0
90,167136,10.5696,0
91,168792,10.5296,0
92,170472,10.4928,0
93,172144,10.4624,0
94,173808,10.424,0
95,175444,10.3856,0
96,177096,10.3584,0
97,178744,10.3248,0
98,180400,10.288,0
99,182040,10.256,0
100,183696,10.2288,0
101,185344,10.184,0
102,186972,10.1472,0
103,188572,10.1136,0
104,190192,10.088,0
105,191836,10.0416,0
106,193460,10.0064,0
107,195040,9.9808,0
108,196644,9.9504,0
109,198264,9.9136,0
110,199864,9.8816,0
111,201444,9.856,0
112,203024,9.8304,0
113,204628,9.7968,0
114,206240,9.7664,0
115,207832,9.728,0
116,209396,9.7024,0
117,210972,9.6736,0
118,212548,9.6432,0
119,214116,9.6128,0
120,215664,9.5776,0
121,217228,9.5424,0
122,218800,9.5168,0
123,220340,9.488,0
124,221860,9.4656,0
125,223404,9.4416,0
126,224944,9.4112,0
127,226496,9.376,0
128,228032,9.3488,0
129,229564,9.3248,0
130,231108,9.3008,0
131,232660,9.2672,0
132,234204,9.2352,0
133,235736,9.2112,0
134,237288,9.184,0
135,238816,9.1568,0
136,240324,9.1296,0
137,241856,9.1056,0
138,243400,9.0768,0
139,244960,9.0416,0
140,246508,9.0112,0
141,248004,8.992,0
142,249524,8.9632,0
143,251024,8.936,0
144,252548,8.9088,0
145,254060,8.88,0
146,255584,8.8528,0
147,257088,8.8224,0
148,258600,8.8,0
149,260116,8.7792,0
150,261632,8.7472,0
151,263120,8.7216,0
152,264624,8.6928,0
153,266116,8.6752,0
154,267604,8.6544,0
155,269112,8.6224,0
156,270592,8.584,0
157,272064,8.5648,0
158,273524,8.5408,0
159,275000,8.5088,0
160,276460,8.4864,0
161,277924,8.464,0
162,279404,8.44,0
163,280880,8.4128,0
164,282356,8.3824,0
165,283792,8.3616,0
166,285240,8.344,0
167,286680,8.3168,0
168,288148,8.2864,0
169,289584,8.2656,0
170,291020,8.2416,0
171,292424,8.2192,0
172,293760,8.1984,0
173,295152,8.1824,0
174,296564,8.1664,0
175,297988,8.1376,0
176,299420,8.1056,0
177,300812,8.0816,0
178,302220,8.064,0
179,303616,8.048,0
180,305004,8.0304,0
181,306392,8.0064,0
182,307816,7.976,0
183,309180,7.9552,0
184,310572,7.9408,0
185,311976,7.9248,0
186,313372,7.8992,0
187,314780,7.8656,0
188,316220,7.8384,0
189,317600,7.8176,0
190,318972,7.7936,0
191,320340,7.7728,0
192,321692,7.752,0
193,323072,7.7392,0
194,324436,7.7216,0
195,325804,7.6976,0
196,327172,7.672,0
197,328524,7.648,0
198,329880,7.6288,0
199,331208,7.6192,0
200,332552,7.5968,0
201,333932,7.5744,0
202,335300,7.5472,0
203,336656,7.5248,0
204,337988,7.5088,0
205,339328,7.4896,0
206,340656,7.4736,0
207,341980,7.448,0
208,343296,7.4272,0
209,344640,7.4128,0
210,345988,7.3968,0
211,347320,7.3808,0
212,348668,7.3552,0
213,350040,7.3248,0
214,351384,7.3072,0
215,352704,7.2928,0
216,354008,7.2816,0
217,355316,7.2656,0
218,356656,7.24,0
219,357988,7.2176,0
220,359308,7.1968,0
221,360624,7.184,0
222,361924,7.1632,0
223,363228,7.1472,0
224,364544,7.1248,0
225,365860,7.1008,0
226,367132,7.0928,0
227,368432,7.0752,0
228,369740,7.0512,0
229,371040,7.0256,0
230,372376,7.0016,0
231,373700,6.9872,0
232,375012,6.9728,0
233,376304,6.9584,0
234,377536,6.9408,0
235,378844,6.9152,0
236,380144,6.8928,0
237,381468,6.8704,0
238,382756,6.8528,0
239,384008,6.84,0
240,385268,6.8272,0
241,386532,6.808,0
242,387840,6.7888,0
243,389108,6.7648,0
244,390348,6.7488,0
245,391592,6.736,0
246,392856,6.7216,0
247,394160,6.6992,0
248,395464,6.6752,0
249,396708,6.6528,0
250,397888,6.6448,0
251,399104,6.6336,0
252,400340,6.616,0
253,401616,6.584,0
254,402880,6.5648,0
255,404108,6.552,0
256,405320,6.5392,0
257,406500,6.5344,0
258,407684,6.5216,0
259,408952,6.496,0
260,410232,6.4736,0
261,411508,6.4544,0
262,412752,6.4416,0
263,414004,6.4208,0
264,415232,6.4064,0
265,416440,6.3904,0
266,417652,6.3712,0
267,418848,6.3552,0
268,420048,6.3392,0
269,421276,6.3216,0
270,422484,6.3072,0
271,423680,6.2864,0
272,424836,6.2736,0
273,426028,6.2608,0
274,427248,6.248,0
275,428480,6.232,0
276,429680,6.2192,0
277,430920,6.1984,0
278,432156,6.168,0
279,433332,6.1552,0
280,434524,6.1488,0
281,435728,6.136,0
282,436920,6.1216,0
283,438152,6.1008,0
284,439368,6.08,0
285,440560,6.0592,0
286,441748,6.0464,0
287,442900,6.04,0
288,444056,6.032,0
289,445256,6.0208,0
290,446480,5.992,0
291,447676,5.9664,0
292,448860,5.9488,0
293,450016,5.936,0
294,451160,5.9296,0
295,452300,5.9216,0
296,453488,5.904,0
297,454644,5.888,0
298,455836,5.8624,0
299,457028,5.8352,0
300,458160,5.824,0
301,459312,5.8096,0
302,460468,5.7968,0
303,461628,5.7808,0
304,462804,5.7696,0
305,463944,5.7536,0
306,465100,5.736,0
307,466232,5.7248,0
308,467336,5.7152,0
309,468448,5.7008,0
310,469556,5.6864,0
311,470656,5.6752,0
312,471784,5.664,0
313,472920,5.6544,0
314,474040,5.6384,0
315,475200,5.6208,0
316,476336,5.6032,0
317,477480,5.5824,0
318,478612,5.5664,0
319,479700,5.5616,0
320,480780,5.5504,0
321,481872,5.5392,0
322,482956,5.528,0
323,484032,5.5088,0
324,485108,5.4928,0
325,486204,5.4816,0
326,487316,5.4672,0
327,488416,5.4608,0
328,489508,5.448,0
329,490620,5.4224,0
330,491708,5.408,0
331,492820,5.392,0
332,493880,5.384,0
333,494984,5.3744,0
334,496100,5.3584,0
335,497208,5.3472,0
336,498316,5.3328,0
337,499388,5.32,0
338,500452,5.304,0
339,501508,5.2928,0
340,502556,5.2832,0
341,503648,5.2672,0
342,504760,5.2528,0
343,505876,5.2384,0
344,506932,5.2224,0
345,508016,5.2096,0
346,509080,5.1984,0
347,510132,5.192,0
348,511224,5.1792,0
349,512284,5.1616,0
350,513324,5.1504,0
351,514356,5.1376,0
352,515408,5.1232,0
353,516476,5.104,0
354,517532,5.0912,0
355,518588,5.0784,0
356,519632,5.0704,0
357,520676,5.0576,0
358,521700,5.048,0
359,522748,5.0352,0
360,523800,5.024,0
361,524868,5.0064,0
362,525916,4.9904,0
363,526948,4.9776,0
364,527960,4.9744,0
365,528980,4.9632,0
366,529980,4.9488,0
367,531016,4.9328,0
368,532016,4.9248,0
369,533060,4.9136,0
370,534116,4.8944,0
371,535120,4.8864,0
372,536140,4.8784,0
373,537184,4.8672,0
374,538196,4.8512,0
375,539208,4.8368,0
376,540216,4.8256,0
377,541220,4.8144,0
378,542228,4.8016,0
379,543268,4.7888,0
380,544300,4.776,0
381,545304,4.7664,0
382,546284,4.7488,0
383,547264,4.7344,0
384,548244,4.7312,0
385,549292,4.7232,0
386,550324,4.712,0
387,551356,4.6976,0
388,552340,4.6944,0
389,553288,4.6896,0
390,554280,4.6768,0
391,555288,4.6624,0
392,556308,4.64,0
393,557324,4.624,0
394,558368,4.6128,0
395,559372,4.6032,0
396,560336,4.5904,0
397,561308,4.5792,0
398,562308,4.5664,0
399,563252,4.5616,0
400,564272,4.5488,0
401,565276,4.5376,0
402,566284,4.5264,0
403,567252,4.5088,0
404,568244,4.5008,0
405,569244,4.488,0
406,570212,4.4752,0
407,571152,4.4704,0
408,572120,4.4576,0
409,573036,4.4416,0
410,574008,4.432,0
411,574992,4.4208,0
412,576004,4.4048,0
413,576980,4.3968,0
414,577920,4.3856,0
415,578904,4.3744,0
416,579860,4.368,0
417,580824,4.3536,0
418,581788,4.3408,0
419,582740,4.336,0
420,583660,4.328,0
421,584580,4.3136,0
422,585460,4.304,0
423,586424,4.2912,0
424,587408,4.2704,0
425,588336,4.2512,0
426,589248,4.2416,0
427,590172,4.2368,0
428,591092,4.232,0
429,592020,4.2208,0
430,592936,4.2096,0
431,593852,4.2,0
432,594780,4.1888,0
433,595720,4.176,0
434,596632,4.1648,0
435,597572,4.1504,0
436,598448,4.144,0
437,599344,4.1328,0
438,600292,4.12,0
439,601252,4.112,0
440,602188,4.104,0
441,603076,4.0912,0
442,603948,4.0784,0
443,604824,4.0688,0
444,605728,4.0656,0
445,606604,4.0576,0
446,607512,4.048,0
447,608428,4.0352,0
448,609328,4.0272,0
449,610264,4.0176,0
450,611184,4.0048,0
451,612080,3.992,0
452,612976,3.976,0
453,613844,3.9632,0
454,614744,3.9536,0
455,615632,3.944,0
456,616512,3.936,0
457,617364,3.9328,0
458,618164,3.9264,0
459,619020,3.9216,0
460,619924,3.9168,0
461,620764,3.9056,0
462,621620,3.8912,0
463,622476,3.8784,0
464,623336,3.8704,0
465,624184,3.8608,0
466,625092,3.8464,0
467,625980,3.8352,0
468,626848,3.8304,0
469,627696,3.8272,0
470,628564,3.8224,0
471,629444,3.8064,0
472,630332,3.7936,0
473,631212,3.7792,0
474,632076,3.7616,0
475,632936,3.7536,0
476,633784,3.7504,0
477,634580,3.744,0
478,635416,3.7312,0
479,636260,3.7152,0
480,637084,3.7072,0
481,637916,3.7024,0
482,638764,3.6944,0
483,639608,3.6864,0
484,640456,3.6752,0
485,641292,3.6656,0
486,642188,3.6576,0
487,643052,3.656,0
488,643904,3.6496,0
489,644704,3.64,0
490,645540,3.6336,0
491,646344,3.6288,0
492,647140,3.6208,0
493,647956,3.6128,0
494,648772,3.6016,0
495,649592,3.5888,0
496,650396,3.5712,0
497,651208,3.5616,0
498,652012,3.5568,0
499,652780,3.552,0
500,653600,3.544,0
501,654388,3.5392,0
502,655148,3.5296,0
503,655940,3.5168,0
504,656740,3.5104,0
505,657524,3.504,0
506,658276,3.4912,0
507,659036,3.4864,0
508,659792,3.4864,0
509,660556,3.48,0
510,661308,3.4752,0
511,662088,3.4704,0
512,662872,3.4608,0
513,663676,3.4496,0
514,664476,3.4384,0
515,665296,3.4272,0
516,666116,3.4144,0
517,666900,3.4032,0
518,667692,3.3856,0
519,668520,3.376,0
520,669304,3.3712,0
521,670124,3.3664,0
522,670908,3.36,0
523,671656,3.3472,0
524,672432,3.3376,0
525,673200,3.3264,0
526,673956,3.3216,0
527,674752,3.3152,0
528,675516,3.304,0
529,676332,3.288,0
530,677172,3.2768,0
531,677980,3.2688,0
532,678732,3.2592,0
533,679472,3.2544,0
534,680208,3.2512,0
535,680932,3.2464,0
536,681704,3.24,0
537,682488,3.232,0
538,683236,3.2192,0
539,683972,3.2064,0
540,684732,3.1952,0
541,685500,3.1856,0
542,686236,3.1792,0
543,686984,3.1712,0
544,687748,3.16,0
545,688512,3.152,0
546,689264,3.1488,0
547,690036,3.1424,0
548,690788,3.1376,0
549,691548,3.128,0
550,692244,3.1184,0
551,692992,3.1056,0
552,693768,3.0928,0
553,694472,3.088,0
554,695164,3.0816,0
555,695840,3.08,0
556,696552,3.0768,0
557,697268,3.0704,0
558,697964,3.064,0
559,698652,3.0608,0
560,699324,3.0576,0
561,700048,3.0496,0
562,700784,3.04,0
563,701512,3.0288,0
564,702264,3.016,0
565,702984,3.0064,0
566,703716,3.0016,0
567,704436,2.9936,0
568,705132,2.9856,0
569,705832,2.984,0
570,706536,2.9776,0
571,707216,2.9664,0
572,707896,2.9584,0
573,708556,2.9536,0
574,709248,2.9424,0
575,709928,2.928,0
576,710624,2.9152,0
577,711312,2.9104,0
578,711992,2.9056,0
579,712648,2.8992,0
580,713332,2.896,0
581,714052,2.888,0
582,714728,2.8784,0
583,715408,2.872,0
584,716112,2.8688,0
585,716820,2.8608,0
586,717516,2.856,0
587,718244,2.848,0
588,718988,2.8352,0
589,719684,2.824,0
590,720352,2.8128,0
591,721020,2.8064,0
592,721708,2.7984,0
593,722360,2.792,0
594,722964,2.7904,0
595,723596,2.7872,0
596,724224,2.7824,0
597,724840,2.7824,0
598,725480,2.7808,0
599,726112,2.7776,0
600,726824,2.7632,0
601,727512,2.7472,0
602,728140,2.7408,0
603,728828,2.7312,0
604,729524,2.7216,0
605,730164,2.7136,0
606,730824,2.7088,0
607,731448,2.704,0
608,732084,2.6976,0
609,732680,2.6944,0
610,733292,2.688,0
611,733924,2.6816,0
612,734536,2.6736,0
613,735132,2.6704,0
614,735776,2.6624,0
615,736396,2.6528,0
616,737024,2.648,0
617,737632,2.6448,0
618,738216,2.6432,0
619,738828,2.6384,0
620,739396,2.6352,0
621,739964,2.6336,0
622,740552,2.6304,0
623,741184,2.6256,0
624,741804,2.6176,0
625,742456,2.6096,0
626,743096,2.5984,0
627,743732,2.5808,0
628,744400,2.568,0
629,745064,2.5568,0
630,745692,2.544,0
631,746308,2.536,0
632,746908,2.5328,0
633,747532,2.5248,0
634,748128,2.5216,0
635,748744,2.5152,0
636,749296,2.512,0
637,749868,2.5072,0
638,750424,2.5008,0
639,750952,2.496,0
640,751516,2.4896,0
641,752124,2.4832,0
642,752728,2.4784,0
643,753312,2.4752,0
644,753920,2.4672,0
645,754520,2.4608,0
646,755096,2.4512,0
647,755656,2.4368,0
648,756216,2.432,0
649,756784,2.424,0
650,757328,2.4192,0
651,757856,2.4144,0
652,758376,2.4144,0
653,758932,2.4096,0
654,759512,2.4016,0
655,760076,2.4,0
656,760620,2.3952,0
657,761184,2.3872,0
658,761768,2.3792,0
659,762288,2.3744,0
660,762848,2.3648,0
661,763352,2.36,0
662,763856,2.352,0
663,764352,2.3504,0
664,764912,2.3472,0
665,765456,2.3424,0
666,766024,2.3408,0
667,766576,2.3328,0
668,767132,2.3248,0
669,767656,2.32,0
670,768180,2.3152,0
671,768744,2.3088,0
672,769284,2.3024,0
673,769804,2.3008,0
674,770344,2.2976,0
675,770884,2.2928,0
676,771432,2.2848,0
677,771972,2.2752,0
678,772496,2.2688,0
679,773000,2.264,0
680,773480,2.2608,0
681,773980,2.2544,0
682,774492,2.2496,0
683,775024,2.2448,0
684,775560,2.2384,0
685,776120,2.232,0
686,776636,2.2224,0
687,777120,2.2176,0
688,777604,2.2144,0
689,778076,2.2144,0
690,778580,2.2128,0
691,779072,2.2064,0
692,779580,2.2,0
693,780080,2.192,0
694,780576,2.1856,0
695,781028,2.1824,0
696,781492,2.1824,0
697,781948,2.1808,0
698,782392,2.1744,0
699,782840,2.1696,0
700,783280,2.1648,0
701,783744,2.1552,0
702,784164,2.1536,0
703,784596,2.1504,0
704,785048,2.144,0
705,785480,2.1376,0
706,785896,2.1344,0
707,786288,2.1344,0
708,786724,2.1328,0
709,787176,2.1264,0
710,787668,2.1136,0
711,788140,2.1056,0
712,788592,2.0992,0
713,789032,2.0912,0
714,789488,2.0832,0
715,789932,2.08,0
716,790388,2.0768,0
717,790840,2.0704,0
718,791256,2.0672,0
719,791680,2.064,0
720,792076,2.0624,0
721,792460,2.0608,0
722,792872,2.0592,0
723,793260,2.0544,0
724,793624,2.0528,0
725,794004,2.048,0
726,794420,2.0432,0
727,794856,2.0416,0
728,795284,2.0368,0
729,795708,2.0272,0
730,796132,2.0144,0
731,796560,2.0096,0
732,796976,2.0,0
733,797356,1.984,0
734,797756,1.9744,0
735,798124,1.9728,0
736,798492,1.9712,0
737,798840,1.968,0
738,799212,1.968,0
739,799552,1.9664,0
740,799868,1.9664,0
741,800192,1.9648,0
742,800532,1.9648,0
743,800876,1.9648,0
744,801192,1.9648,0
745,801492,1.9632,0
746,801796,1.9616,0
747,802124,1.9616,0
748,802460,1.96,0
749,802796,1.9568,0
750,803112,1.9552,0
751,803412,1.9536,0
752,803720,1.9504,0
753,804052,1.9488,0
754,804412,1.9456,0
755,804748,1.9392,0
756,805068,1.9296,0
757,805404,1.92,0
758,805732,1.9136,0
759,806036,1.9104,0
760,806332,1.9104,0
761,806628,1.9088,0
762,806920,1.904,0
763,807204,1.896,0
764,807472,1.8896,0
765,807692,1.8896,0
766,807960,1.8848,0
767,808240,1.8784,0
768,808468,1.8752,0
769,808672,1.8752,0
770,808888,1.8752,0
771,809128,1.8752,0
772,809352,1.8752,0
773,809604,1.8752,0
774,809840,1.8736,0
775,810084,1.872,0
776,810340,1.8688,0
777,810592,1.8688,0
778,810860,1.8672,0
779,811088,1.864,0
780,811292,1.856,0
781,811500,1.8496,0
782,811712,1.8464,0
783,811936,1.8432,0
784,812164,1.8416,0
785,812392,1.8368,0
786,812608,1.8336,0
787,812832,1.832,0
788,813088,1.8256,0
789,813304,1.8208,0
790,813516,1.8192,0
791,813744,1.8192,0
792,813944,1.8192,0
793,814100,1.8192,0
794,814260,1.8192,0
795,814408,1.8192,0
796,814532,1.8192,0
797,814664,1.8192,0
798,814796,1.8192,0
799,814904,1.8192,0
800,814976,1.8192,0
801,815072,1.8192,0
802,815184,1.8192,0
803,815276,1.8192,0
804,815360,1.8192,0
805,815452,1.8192,0
806,815548,1.8176,0
807,815648,1.8128,0
808,815772,1.8096,0
809,815908,1.808,0
810,816032,1.808,0
811,816168,1.8064,0
812,816300,1.8048,0
813,816428,1.8048,0
814,816556,1.8048,0
815,816664,1.8032,0
816,816768,1.8,0
817,816892,1.7952,0
818,816988,1.7936,0
819,817096,1.792,0
820,817192,1.792,0
821,817272,1.7904,0
822,817356,1.7872,0
823,817428,1.7872,0
824,817508,1.7872,0
825,817600,1.7872,0
826,817660,1.7872,0
827,817716,1.7856,0
828,817768,1.7824,0
829,817816,1.7808,0
830,817856,1.7808,0
831,817904,1.7808,0
832,817952,1.7808,0
833,818012,1.7808,0
834,818060,1.7808,0
835,818096,1.7808,0
836,818152,1.7808,0
837,818204,1.7792,0
838,818240,1.7792,0
839,818268,1.7792,0
840,818308,1.7776,0
841,818340,1.776,0
842,818368,1.776,0
843,818396,1.776,0
844,818428,1.776,0
845,818456,1.776,0
846,818476,1.776,0
847,818492,1.776,0
848,818500,1.776,0
849,818500,1.776,0
